Depth [m]	Temperature [degC]	Salinity [PSU]	Oxygen [umol/kg]
1.0	19.998	36.378	220.44
2.0	19.998	36.378	221.19
3.0	19.998	36.378	221.94
4.0	19.998	36.378	222.71
5.0	19.998	36.378	223.51
6.0	19.998	36.378	224.41
6.9	19.998	36.378	225.46
7.9	20.017	36.379	226.66
8.9	20.03	36.381	227.93
9.9	20.019	36.381	229.19
10.9	20.009	36.381	230.41
11.9	19.997	36.381	231.58
12.9	19.975	36.385	232.7
13.9	19.896	36.391	233.77
14.9	19.758	36.391	234.78
15.9	19.642	36.387	235.7
16.9	19.565	36.385	236.54
17.9	19.493	36.389	237.27
18.9	19.363	36.384	237.92
19.9	19.209	36.363	238.52
20.8	19.153	36.341	239.13
21.8	19.149	36.332	239.78
22.8	19.144	36.332	240.48
23.8	19.129	36.334	241.22
24.8	19.089	36.342	242.01
25.8	18.983	36.362	242.82
26.8	18.776	36.388	243.67
27.8	18.442	36.411	244.55
28.8	18.023	36.413	245.43
29.8	17.732	36.385	246.28
30.8	17.622	36.359	247.06
31.8	17.555	36.352	247.76
32.8	17.482	36.355	248.35
33.7	17.393	36.356	248.85
34.7	17.314	36.347	249.23
35.7	17.278	36.336	249.5
36.7	17.255	36.332	249.64
37.7	17.225	36.335	249.67
38.7	17.167	36.34	249.59
39.7	17.085	36.342	249.41
40.7	17.011	36.337	249.14
41.7	16.945	36.332	248.81
42.7	16.85	36.332	248.41
43.7	16.737	36.327	247.93
44.7	16.66	36.312	247.37
45.7	16.618	36.301	246.74
46.7	16.583	36.298	246.04
47.6	16.533	36.298	245.29
48.6	16.481	36.293	244.51
49.6	16.439	36.288	243.68
50.6	16.392	36.285	242.83
51.6	16.336	36.28	241.95
52.6	16.281	36.272	241.06
53.6	16.247	36.264	240.16
54.6	16.224	36.258	239.26
55.6	16.203	36.255	238.36
56.6	16.176	36.255	237.46
57.6	16.139	36.253	236.56
58.6	16.104	36.25	235.64
59.6	16.064	36.247	234.71
60.5	16.024	36.241	233.8
61.5	16.004	36.234	232.89
62.5	15.994	36.231	232.01
63.5	15.975	36.23	231.16
64.5	15.954	36.228	230.36
65.5	15.942	36.225	229.62
66.5	15.936	36.223	228.96
67.5	15.93	36.222	228.37
68.5	15.923	36.221	227.85
69.5	15.917	36.221	227.42
70.5	15.91	36.22	227.06
71.5	15.903	36.219	226.75
72.5	15.897	36.218	226.49
73.4	15.89	36.217	226.26
74.4	15.878	36.217	226.05
75.4	15.862	36.216	225.84
76.4	15.843	36.214	225.63
77.4	15.821	36.211	225.4
78.4	15.8	36.207	225.15
79.4	15.774	36.204	224.9
80.4	15.736	36.201	224.63
81.4	15.703	36.194	224.34
82.4	15.682	36.188	224.02
83.4	15.664	36.185	223.68
84.4	15.629	36.182	223.31
85.4	15.583	36.175	222.91
86.3	15.541	36.168	222.48
87.3	15.502	36.162	222.02
88.3	15.465	36.155	221.52
89.3	15.439	36.147	220.99
90.3	15.417	36.141	220.41
91.3	15.395	36.137	219.77
92.3	15.374	36.132	219.07
93.3	15.342	36.129	218.3
94.3	15.295	36.122	217.44
95.3	15.264	36.114	216.51
96.3	15.253	36.109	215.53
97.3	15.239	36.107	214.51
98.3	15.206	36.103	213.46
99.2	15.163	36.095	212.41
100.2	15.142	36.088	211.37
101.2	15.133	36.086	210.35
102.2	15.12	36.083	209.39
103.2	15.109	36.082	208.51
104.2	15.103	36.081	207.76
105.2	15.091	36.08	207.16
106.2	15.069	36.079	206.71
107.2	15.045	36.077	206.39
108.2	15.017	36.073	206.19
109.2	14.998	36.067	206.07
110.2	14.99	36.064	206.02
111.2	14.984	36.062	206.03
112.1	14.978	36.061	206.08
113.1	14.97	36.06	206.14
114.1	14.96	36.059	206.19
115.1	14.947	36.058	206.23
116.1	14.925	36.056	206.23
117.1	14.897	36.053	206.21
118.1	14.873	36.048	206.15
119.1	14.857	36.043	206.08
120.1	14.843	36.04	206.0
121.1	14.823	36.038	205.91
122.1	14.8	36.035	205.81
123.1	14.776	36.032	205.71
124.0	14.753	36.028	205.64
125.0	14.733	36.025	205.59
126.0	14.712	36.021	205.57
127.0	14.694	36.017	205.58
128.0	14.683	36.013	205.62
129.0	14.675	36.011	205.69
130.0	14.654	36.011	205.8
131.0	14.603	36.01	205.97
132.0	14.547	36.0	206.2
133.0	14.522	35.989	206.48
134.0	14.509	35.985	206.8
135.0	14.485	35.984	207.16
136.0	14.453	35.979	207.55
136.9	14.436	35.972	207.97
137.9	14.43	35.97	208.39
138.9	14.425	35.968	208.8
139.9	14.422	35.967	209.2
140.9	14.42	35.967	209.57
141.9	14.417	35.966	209.89
142.9	14.414	35.966	210.15
143.9	14.412	35.966	210.38
144.9	14.409	35.965	210.56
145.9	14.401	35.965	210.68
146.9	14.384	35.965	210.73
147.9	14.358	35.962	210.7
148.8	14.336	35.958	210.58
149.8	14.32	35.954	210.38
150.8	14.301	35.952	210.1
151.8	14.266	35.95	209.77
152.8	14.225	35.945	209.37
153.8	14.195	35.938	208.9
154.8	14.176	35.936	208.36
155.8	14.162	35.935	207.76
156.8	14.15	35.934	207.13
157.8	14.141	35.933	206.5
158.8	14.133	35.932	205.89
159.8	14.125	35.931	205.33
160.8	14.118	35.93	204.79
161.7	14.111	35.929	204.29
162.7	14.106	35.928	203.84
163.7	14.102	35.927	203.46
164.7	14.097	35.926	203.16
165.7	14.089	35.926	202.93
166.7	14.079	35.924	202.75
167.7	14.072	35.922	202.6
168.7	14.067	35.921	202.48
169.7	14.059	35.921	202.37
170.7	14.05	35.92	202.27
171.7	14.044	35.919	202.21
172.7	14.035	35.918	202.17
173.6	14.022	35.917	202.16
174.6	14.008	35.915	202.13
175.6	13.993	35.913	202.08
176.6	13.978	35.912	202.02
177.6	13.963	35.91	201.98
178.6	13.946	35.908	201.94
179.6	13.924	35.907	201.91
180.6	13.894	35.904	201.89
181.6	13.864	35.899	201.87
182.6	13.84	35.894	201.82
183.6	13.821	35.89	201.74
184.6	13.806	35.887	201.64
185.5	13.797	35.884	201.55
186.5	13.791	35.883	201.48
187.5	13.788	35.882	201.44
188.5	13.786	35.881	201.4
189.5	13.783	35.881	201.36
190.5	13.78	35.881	201.31
191.5	13.773	35.881	201.24
192.5	13.756	35.881	201.15
193.5	13.73	35.881	201.09
194.5	13.708	35.876	201.07
195.5	13.695	35.871	201.08
196.5	13.682	35.869	201.08
197.5	13.668	35.867	201.06
198.4	13.654	35.865	201.01
199.4	13.637	35.863	200.93
200.4	13.626	35.86	200.86
201.4	13.622	35.858	200.81
202.4	13.621	35.857	200.8
203.4	13.617	35.858	200.81
204.4	13.6	35.859	200.81
205.4	13.57	35.857	200.79
206.4	13.545	35.853	200.76
207.4	13.529	35.848	200.73
208.4	13.515	35.847	200.71
209.4	13.495	35.845	200.71
210.3	13.477	35.842	200.7
211.3	13.46	35.839	200.67
212.3	13.446	35.837	200.6
213.3	13.436	35.835	200.51
214.3	13.431	35.833	200.41
215.3	13.43	35.832	200.32
216.3	13.429	35.831	200.23
217.3	13.428	35.832	200.14
218.3	13.425	35.831	200.05
219.3	13.422	35.831	199.97
220.3	13.419	35.831	199.91
221.3	13.416	35.83	199.88
222.2	13.414	35.83	199.88
223.2	13.413	35.829	199.87
224.2	13.411	35.83	199.83
225.2	13.4	35.83	199.79
226.2	13.382	35.829	199.73
227.2	13.363	35.827	199.67
228.2	13.347	35.824	199.59
229.2	13.334	35.82	199.51
230.2	13.324	35.819	199.4
231.2	13.311	35.818	199.28
232.2	13.295	35.817	199.14
233.2	13.285	35.814	199.05
234.1	13.28	35.812	199.03
235.1	13.276	35.811	199.05
236.1	13.274	35.81	199.1
237.1	13.271	35.81	199.15
238.1	13.266	35.81	199.21
239.1	13.259	35.81	199.31
240.1	13.253	35.808	199.43
241.1	13.25	35.807	199.55
242.1	13.249	35.807	199.67
243.1	13.246	35.807	199.77
244.1	13.237	35.807	199.81
245.0	13.22	35.807	199.83
246.0	13.197	35.807	199.85
247.0	13.158	35.805	199.88
248.0	13.119	35.798	199.91
249.0	13.099	35.791	199.93
250.0	13.086	35.788	199.91
251.0	13.071	35.787	199.87
252.0	13.057	35.785	199.83
253.0	13.045	35.784	199.83
254.0	13.029	35.782	199.85
255.0	13.015	35.779	199.89
256.0	13.006	35.777	199.91
256.9	12.993	35.776	199.91
257.9	12.982	35.774	199.88
258.9	12.976	35.772	199.85
259.9	12.973	35.772	199.83
260.9	12.97	35.771	199.85
261.9	12.968	35.771	199.88
262.9	12.966	35.771	199.92
263.9	12.963	35.77	199.93
264.9	12.957	35.77	199.92
265.9	12.945	35.771	199.89
266.9	12.927	35.77	199.87
267.9	12.911	35.767	199.85
268.8	12.897	35.765	199.85
269.8	12.883	35.763	199.83
270.8	12.87	35.761	199.79
271.8	12.86	35.759	199.72
272.8	12.855	35.757	199.63
273.8	12.853	35.756	199.53
274.8	12.852	35.756	199.44
275.8	12.851	35.756	199.37
276.8	12.851	35.756	199.32
277.8	12.848	35.756	199.25
278.8	12.841	35.756	199.17
279.7	12.833	35.755	199.09
280.7	12.827	35.754	199.02
281.7	12.819	35.754	198.97
282.7	12.812	35.752	198.94
283.7	12.807	35.751	198.93
284.7	12.804	35.751	198.91
285.7	12.801	35.75	198.88
286.7	12.798	35.75	198.84
287.7	12.792	35.75	198.8
288.7	12.784	35.75	198.79
289.7	12.773	35.749	198.8
290.7	12.764	35.747	198.8
291.6	12.758	35.745	198.8
292.6	12.753	35.745	198.77
293.6	12.747	35.745	198.74
294.6	12.736	35.745	198.72
295.6	12.72	35.744	198.71
296.6	12.701	35.742	198.71
297.6	12.683	35.739	198.7
298.6	12.669	35.737	198.67
299.6	12.653	35.736	198.62
300.6	12.633	35.734	198.55
301.6	12.617	35.732	198.48
302.5	12.606	35.729	198.41
303.5	12.6	35.727	198.35
304.5	12.597	35.726	198.28
305.5	12.593	35.726	198.2
306.5	12.588	35.726	198.12
307.5	12.583	35.725	198.03
308.5	12.577	35.725	197.95
309.5	12.567	35.725	197.86
310.5	12.556	35.724	197.79
311.5	12.549	35.722	197.71
312.5	12.545	35.721	197.65
313.5	12.538	35.721	197.59
314.4	12.532	35.719	197.54
315.4	12.526	35.719	197.49
316.4	12.514	35.718	197.43
317.4	12.504	35.716	197.38
318.4	12.5	35.714	197.35
319.4	12.495	35.714	197.34
320.4	12.489	35.713	197.37
321.4	12.483	35.713	197.43
322.4	12.474	35.712	197.51
323.4	12.461	35.712	197.61
324.4	12.451	35.71	197.71
325.3	12.447	35.708	197.81
326.3	12.44	35.709	197.91
327.3	12.423	35.709	198.03
328.3	12.411	35.707	198.16
329.3	12.407	35.705	198.3
330.3	12.403	35.705	198.42
331.3	12.397	35.705	198.51
332.3	12.392	35.704	198.57
333.3	12.386	35.704	198.61
334.3	12.372	35.704	198.62
335.3	12.359	35.702	198.63
336.2	12.353	35.7	198.65
337.2	12.349	35.7	198.66
338.2	12.342	35.7	198.66
339.2	12.334	35.7	198.64
340.2	12.326	35.699	198.61
341.2	12.322	35.698	198.58
342.2	12.317	35.697	198.55
343.2	12.31	35.697	198.53
344.2	12.303	35.696	198.53
345.2	12.297	35.695	198.54
346.2	12.289	35.694	198.55
347.1	12.279	35.693	198.56
348.1	12.268	35.692	198.57
349.1	12.259	35.691	198.58
350.1	12.251	35.69	198.6
351.1	12.247	35.689	198.6
352.1	12.245	35.688	198.61
353.1	12.243	35.688	198.6
354.1	12.24	35.688	198.58
355.1	12.234	35.688	198.55
356.1	12.217	35.689	198.51
357.1	12.187	35.688	198.46
358.0	12.162	35.683	198.42
359.0	12.145	35.679	198.37
360.0	12.133	35.677	198.31
361.0	12.126	35.675	198.24
362.0	12.121	35.675	198.18
363.0	12.113	35.675	198.11
364.0	12.103	35.674	198.05
365.0	12.097	35.673	197.97
366.0	12.093	35.671	197.9
367.0	12.092	35.671	197.81
368.0	12.088	35.672	197.72
368.9	12.079	35.672	197.62
369.9	12.065	35.671	197.51
370.9	12.051	35.669	197.41
371.9	12.043	35.667	197.31
372.9	12.037	35.666	197.23
373.9	12.032	35.666	197.14
374.9	12.024	35.666	197.06
375.9	12.007	35.666	196.98
376.9	11.986	35.664	196.89
377.9	11.975	35.661	196.79
378.9	11.969	35.66	196.68
379.8	11.964	35.659	196.56
380.8	11.96	35.659	196.44
381.8	11.959	35.658	196.31
382.8	11.957	35.659	196.17
383.8	11.953	35.659	196.02
384.8	11.948	35.658	195.87
385.8	11.943	35.658	195.71
386.8	11.938	35.657	195.54
387.8	11.93	35.657	195.37
388.8	11.922	35.655	195.2
389.8	11.917	35.654	195.05
390.7	11.914	35.653	194.91
391.7	11.912	35.653	194.78
392.7	11.908	35.653	194.65
393.7	11.904	35.653	194.52
394.7	11.898	35.653	194.38
395.7	11.893	35.653	194.23
396.7	11.888	35.652	194.09
397.7	11.886	35.652	193.98
398.7	11.886	35.651	193.88
399.7	11.886	35.651	193.81
400.7	11.885	35.652	193.75
401.6	11.882	35.652	193.68
402.6	11.876	35.652	193.61
403.6	11.869	35.652	193.54
404.6	11.862	35.652	193.49
405.6	11.858	35.651	193.47
406.6	11.855	35.651	193.47
407.6	11.853	35.651	193.47
408.6	11.852	35.651	193.47
409.6	11.85	35.651	193.45
410.6	11.845	35.651	193.42
411.6	11.84	35.651	193.38
412.5	11.836	35.65	193.36
413.5	11.83	35.65	193.36
414.5	11.824	35.65	193.36
415.5	11.816	35.65	193.34
416.5	11.803	35.649	193.29
417.5	11.789	35.648	193.22
418.5	11.777	35.647	193.14
419.5	11.763	35.646	193.05
420.5	11.748	35.646	192.96
421.5	11.737	35.644	192.88
422.5	11.729	35.643	192.79
423.4	11.725	35.642	192.7
424.4	11.723	35.641	192.6
425.4	11.723	35.64	192.5
426.4	11.723	35.64	192.39
427.4	11.722	35.641	192.31
428.4	11.719	35.641	192.26
429.4	11.715	35.641	192.22
430.4	11.711	35.641	192.2
431.4	11.709	35.641	192.19
432.4	11.707	35.641	192.18
433.3	11.704	35.641	192.17
434.3	11.699	35.64	192.14
435.3	11.694	35.64	192.09
436.3	11.688	35.64	192.05
437.3	11.681	35.64	192.01
438.3	11.674	35.639	191.97
439.3	11.669	35.638	191.92
440.3	11.666	35.638	191.87
441.3	11.663	35.638	191.81
442.3	11.657	35.638	191.74
443.3	11.65	35.638	191.67
444.2	11.644	35.637	191.6
445.2	11.641	35.637	191.55
446.2	11.638	35.636	191.52
447.2	11.635	35.636	191.51
448.2	11.631	35.636	191.5
449.2	11.628	35.636	191.47
450.2	11.625	35.635	191.44
451.2	11.624	35.635	191.4
452.2	11.62	35.635	191.35
453.2	11.612	35.636	191.31
454.2	11.598	35.636	191.28
455.1	11.585	35.635	191.26
456.1	11.577	35.634	191.26
457.1	11.57	35.633	191.24
458.1	11.562	35.632	191.21
459.1	11.557	35.631	191.18
460.1	11.555	35.631	191.15
461.1	11.553	35.63	191.13
462.1	11.553	35.63	191.12
463.1	11.551	35.631	191.12
464.1	11.543	35.631	191.11
465.0	11.531	35.63	191.09
466.0	11.523	35.629	191.05
467.0	11.518	35.628	190.98
468.0	11.515	35.628	190.91
469.0	11.513	35.628	190.85
470.0	11.508	35.63	190.79
471.0	11.498	35.631	190.74
472.0	11.488	35.63	190.69
473.0	11.481	35.628	190.64
474.0	11.478	35.627	190.58
475.0	11.475	35.627	190.52
475.9	11.472	35.626	190.46
476.9	11.469	35.626	190.4
477.9	11.466	35.627	190.34
478.9	11.463	35.627	190.29
479.9	11.462	35.627	190.25
480.9	11.46	35.628	190.21
481.9	11.459	35.628	190.16
482.9	11.458	35.628	190.11
483.9	11.457	35.629	190.04
484.9	11.455	35.629	189.98
485.8	11.45	35.631	189.92
486.8	11.441	35.633	189.88
487.8	11.432	35.633	189.86
488.8	11.425	35.633	189.85
489.8	11.42	35.633	189.82
490.8	11.412	35.634	189.78
491.8	11.402	35.636	189.71
492.8	11.394	35.636	189.63
493.8	11.389	35.637	189.56
494.8	11.386	35.636	189.5
495.7	11.384	35.636	189.44
496.7	11.38	35.636	189.38
497.7	11.377	35.635	189.3
498.7	11.376	35.635	189.21
499.7	11.371	35.635	189.12
500.7	11.356	35.637	189.04
501.7	11.34	35.636	188.98
502.7	11.332	35.635	188.96
503.7	11.328	35.634	188.94
504.7	11.325	35.633	188.93
505.7	11.324	35.633	188.9
506.6	11.323	35.633	188.86
507.6	11.323	35.633	188.81
508.6	11.322	35.633	188.75
509.6	11.322	35.634	188.7
510.6	11.319	35.634	188.65
511.6	11.312	35.635	188.59
512.6	11.307	35.635	188.52
513.6	11.304	35.635	188.41
514.6	11.301	35.635	188.28
515.6	11.297	35.636	188.14
516.5	11.292	35.637	188.0
517.5	11.288	35.637	187.88
518.5	11.282	35.638	187.78
519.5	11.273	35.639	187.68
520.5	11.267	35.639	187.59
521.5	11.263	35.638	187.49
522.5	11.26	35.638	187.36
523.5	11.258	35.638	187.23
524.5	11.255	35.638	187.1
525.5	11.253	35.639	187.0
526.4	11.251	35.639	186.92
527.4	11.247	35.639	186.85
528.4	11.245	35.639	186.78
529.4	11.243	35.639	186.71
530.4	11.241	35.639	186.62
531.4	11.239	35.638	186.53
532.4	11.234	35.638	186.44
533.4	11.231	35.638	186.36
534.4	11.229	35.637	186.3
535.4	11.226	35.637	186.26
536.3	11.222	35.637	186.21
537.3	11.215	35.637	186.14
538.3	11.197	35.638	186.05
539.3	11.175	35.638	185.93
540.3	11.164	35.636	185.8
541.3	11.16	35.636	185.65
542.3	11.158	35.635	185.5
543.3	11.157	35.636	185.35
544.3	11.147	35.639	185.19
545.3	11.13	35.641	185.02
546.2	11.12	35.641	184.83
547.2	11.115	35.64	184.63
548.2	11.113	35.639	184.41
549.2	11.11	35.64	184.18
550.2	11.106	35.64	183.96
551.2	11.101	35.641	183.75
552.2	11.091	35.641	183.55
553.2	11.077	35.644	183.34
554.2	11.069	35.647	183.11
555.2	11.066	35.651	182.89
556.1	11.066	35.654	182.66
557.1	11.067	35.656	182.44
558.1	11.069	35.657	182.23
559.1	11.068	35.657	182.04
560.1	11.066	35.658	181.85
561.1	11.063	35.658	181.67
562.1	11.059	35.658	181.5
563.1	11.052	35.658	181.32
564.1	11.044	35.661	181.15
565.1	11.033	35.665	180.99
566.0	11.019	35.667	180.83
567.0	11.006	35.667	180.68
568.0	10.999	35.666	180.53
569.0	11.001	35.667	180.38
570.0	11.003	35.669	180.24
571.0	11.004	35.669	180.1
572.0	11.005	35.67	179.97
573.0	11.005	35.67	179.84
574.0	11.005	35.67	179.73
575.0	11.005	35.67	179.64
575.9	11.007	35.671	179.57
576.9	11.013	35.673	179.49
577.9	11.018	35.677	179.41
578.9	11.017	35.68	179.33
579.9	11.013	35.681	179.25
580.9	11.006	35.681	179.17
581.9	11.0	35.68	179.07
582.9	10.997	35.679	178.97
583.9	10.994	35.678	178.86
584.9	10.989	35.679	178.74
585.8	10.982	35.68	178.6
586.8	10.975	35.681	178.45
587.8	10.974	35.683	178.31
588.8	10.977	35.685	178.17
589.8	10.981	35.687	178.03
590.8	10.984	35.688	177.9
591.8	10.987	35.689	177.78
592.8	10.99	35.69	177.68
593.8	10.992	35.691	177.61
594.8	10.997	35.692	177.55
595.7	11.014	35.693	177.51
596.7	11.045	35.701	177.48
597.7	11.07	35.712	177.48
598.7	11.082	35.719	177.5
599.7	11.094	35.722	177.52
600.7	11.122	35.728	177.56
601.7	11.148	35.739	177.62
602.7	11.153	35.747	177.68
603.7	11.149	35.75	177.74
604.7	11.147	35.75	177.8
605.6	11.147	35.75	177.86
606.6	11.15	35.751	177.92
607.6	11.151	35.752	177.98
608.6	11.15	35.753	178.05
609.6	11.146	35.755	178.11
610.6	11.136	35.757	178.18
611.6	11.124	35.758	178.24
612.6	11.112	35.757	178.3
613.6	11.106	35.758	178.36
614.5	11.113	35.763	178.43
615.5	11.133	35.771	178.53
616.5	11.157	35.781	178.64
617.5	11.176	35.79	178.77
618.5	11.194	35.797	178.91
619.5	11.209	35.804	179.04
620.5	11.22	35.809	179.18
621.5	11.23	35.814	179.32
622.5	11.238	35.817	179.46
623.5	11.244	35.82	179.61
624.4	11.249	35.822	179.75
625.4	11.25	35.823	179.87
626.4	11.25	35.824	179.97
627.4	11.251	35.824	180.05
628.4	11.253	35.824	180.1
629.4	11.256	35.825	180.15
630.4	11.258	35.826	180.18
631.4	11.259	35.827	180.2
632.4	11.26	35.827	180.22
633.4	11.261	35.828	180.25
634.3	11.264	35.829	180.27
635.3	11.265	35.831	180.31
636.3	11.266	35.833	180.37
637.3	11.269	35.834	180.45
638.3	11.276	35.837	180.55
639.3	11.284	35.843	180.65
640.3	11.288	35.847	180.78
641.3	11.288	35.849	180.92
642.3	11.289	35.85	181.09
643.3	11.288	35.852	181.26
644.2	11.287	35.853	181.44
645.2	11.283	35.853	181.6
646.2	11.274	35.854	181.76
647.2	11.262	35.853	181.89
648.2	11.25	35.852	182.01
649.2	11.236	35.851	182.1
650.2	11.225	35.85	182.17
651.2	11.218	35.849	182.21
652.2	11.211	35.848	182.23
653.1	11.206	35.847	182.23
654.1	11.199	35.847	182.2
655.1	11.191	35.846	182.16
656.1	11.18	35.845	182.12
657.1	11.169	35.843	182.06
658.1	11.166	35.842	182.0
659.1	11.179	35.846	181.95
660.1	11.196	35.853	181.89
661.1	11.204	35.859	181.85
662.1	11.207	35.862	181.82
663.0	11.208	35.863	181.8
664.0	11.215	35.865	181.8
665.0	11.23	35.87	181.8
666.0	11.248	35.879	181.81
667.0	11.268	35.885	181.83
668.0	11.289	35.894	181.86
669.0	11.301	35.902	181.91
670.0	11.312	35.906	181.98
671.0	11.33	35.911	182.08
671.9	11.352	35.917	182.19
672.9	11.367	35.924	182.31
673.9	11.376	35.928	182.46
674.9	11.397	35.926	182.63
675.9	11.482	35.945	182.81
676.9	11.549	35.976	183.02
677.9	11.559	35.988	183.26
678.9	11.558	35.991	183.5
679.9	11.557	35.991	183.75
680.9	11.557	35.991	183.99
681.8	11.565	35.991	184.22
682.8	11.579	35.996	184.43
683.8	11.585	36.002	184.63
684.8	11.584	36.005	184.81
685.8	11.581	36.006	184.97
686.8	11.581	36.006	185.1
687.8	11.585	36.007	185.2
688.8	11.595	36.01	185.27
689.8	11.61	36.014	185.33
690.7	11.625	36.021	185.38
691.7	11.637	36.025	185.42
692.7	11.644	36.028	185.47
693.7	11.653	36.033	185.52
694.7	11.664	36.038	185.58
695.7	11.679	36.043	185.64
696.7	11.691	36.049	185.73
697.7	11.703	36.052	185.83
698.7	11.724	36.057	185.96
699.6	11.741	36.065	186.12
700.6	11.75	36.07	186.29
701.6	11.771	36.072	186.47
702.6	11.8	36.081	186.66
703.6	11.82	36.094	186.84
704.6	11.825	36.098	187.02
705.6	11.831	36.099	187.18
706.6	11.839	36.101	187.33
707.6	11.845	36.103	187.47
708.6	11.847	36.105	187.59
709.5	11.848	36.106	187.69
710.5	11.846	36.107	187.77
711.5	11.841	36.107	187.83
712.5	11.843	36.106	187.87
713.5	11.849	36.106	187.9
714.5	11.861	36.108	187.92
715.5	11.876	36.112	187.95
716.5	11.883	36.116	187.99
717.5	11.887	36.118	188.04
