Depth [m]	Temperature [degC]	Salinity [PSU]	Oxygen [umol/kg]
1.0	21.662	36.591	213.35
2.0	21.662	36.591	214.53
3.0	21.662	36.591	215.72
4.0	21.662	36.591	216.91
5.0	21.662	36.591	218.11
6.0	21.635	36.594	219.35
6.9	21.562	36.599	220.6
7.9	21.457	36.6	221.81
8.9	21.327	36.601	222.96
9.9	21.186	36.596	224.01
10.9	21.091	36.586	224.97
11.9	21.058	36.578	225.85
12.9	21.037	36.576	226.68
13.9	21.022	36.575	227.43
14.9	21.013	36.574	228.09
15.9	21.004	36.575	228.66
16.9	20.975	36.579	229.12
17.9	20.924	36.582	229.51
18.9	20.868	36.581	229.87
19.9	20.801	36.579	230.24
20.8	20.692	36.583	230.63
21.8	20.526	36.583	231.02
22.8	20.375	36.566	231.4
23.8	20.315	36.545	231.74
24.8	20.306	36.537	232.08
25.8	20.289	36.537	232.43
26.8	20.259	36.536	232.78
27.8	20.221	36.534	233.14
28.8	20.178	36.529	233.53
29.8	20.132	36.524	233.97
30.8	20.092	36.518	234.46
31.8	20.071	36.514	235.02
32.8	20.053	36.511	235.68
33.7	20.038	36.51	236.47
34.7	20.026	36.509	237.39
35.7	20.012	36.51	238.45
36.7	19.935	36.521	239.62
37.7	19.758	36.532	240.9
38.7	19.469	36.534	242.27
39.7	18.995	36.521	243.69
40.7	18.57	36.495	245.11
41.7	18.325	36.472	246.51
42.7	18.031	36.446	247.84
43.7	17.834	36.422	249.06
44.7	17.738	36.414	250.13
45.7	17.63	36.411	251.03
46.7	17.548	36.402	251.76
47.6	17.495	36.393	252.29
48.6	17.458	36.387	252.63
49.6	17.428	36.383	252.78
50.6	17.393	36.381	252.76
51.6	17.344	36.381	252.59
52.6	17.287	36.38	252.3
53.6	17.242	36.377	251.91
54.6	17.19	36.376	251.44
55.6	17.116	36.373	250.91
56.6	17.061	36.364	250.32
57.6	17.032	36.356	249.69
58.6	17.005	36.353	249.04
59.6	16.98	36.351	248.39
60.5	16.949	36.351	247.77
61.5	16.914	36.349	247.16
62.5	16.884	36.344	246.53
63.5	16.864	36.34	245.89
64.5	16.849	36.337	245.22
65.5	16.839	36.336	244.54
66.5	16.823	36.337	243.85
67.5	16.789	36.338	243.14
68.5	16.733	36.335	242.38
69.5	16.645	36.326	241.55
70.5	16.533	36.308	240.62
71.5	16.449	36.293	239.58
72.5	16.407	36.288	238.45
73.4	16.371	36.288	237.3
74.4	16.307	36.288	236.15
75.4	16.205	36.279	234.98
76.4	16.126	36.259	233.77
77.4	16.093	36.246	232.52
78.4	16.067	36.243	231.26
79.4	16.036	36.24	230.05
80.4	16.016	36.236	228.92
81.4	16.0	36.233	227.88
82.4	15.981	36.23	226.93
83.4	15.964	36.226	226.05
84.4	15.939	36.224	225.21
85.4	15.892	36.221	224.4
86.3	15.843	36.212	223.64
87.3	15.819	36.204	222.95
88.3	15.796	36.202	222.35
89.3	15.746	36.198	221.8
90.3	15.688	36.191	221.27
91.3	15.645	36.181	220.75
92.3	15.623	36.173	220.22
93.3	15.617	36.17	219.67
94.3	15.612	36.168	219.07
95.3	15.604	36.168	218.43
96.3	15.579	36.169	217.74
97.3	15.519	36.165	217.0
98.3	15.442	36.151	216.22
99.2	15.378	36.134	215.38
100.2	15.339	36.123	214.51
101.2	15.313	36.117	213.63
102.2	15.289	36.113	212.76
103.2	15.269	36.108	211.9
104.2	15.257	36.104	211.1
105.2	15.242	36.102	210.43
106.2	15.219	36.099	209.9
107.2	15.2	36.097	209.5
108.2	15.17	36.093	209.21
109.2	15.137	36.087	209.04
110.2	15.1	36.08	208.94
111.2	15.068	36.074	208.91
112.1	15.043	36.069	208.93
113.1	15.012	36.065	208.99
114.1	14.975	36.062	209.1
115.1	14.939	36.056	209.21
116.1	14.912	36.049	209.29
117.1	14.896	36.045	209.33
118.1	14.883	36.042	209.35
119.1	14.868	36.04	209.33
120.1	14.851	36.038	209.28
121.1	14.834	36.036	209.23
122.1	14.817	36.033	209.19
123.1	14.797	36.03	209.15
124.0	14.773	36.027	209.11
125.0	14.747	36.022	209.06
126.0	14.718	36.019	209.0
127.0	14.684	36.015	208.94
128.0	14.653	36.009	208.86
129.0	14.631	36.003	208.78
130.0	14.619	35.999	208.71
131.0	14.614	35.997	208.63
132.0	14.603	35.997	208.56
133.0	14.58	35.994	208.48
134.0	14.552	35.99	208.41
135.0	14.526	35.986	208.34
136.0	14.501	35.983	208.3
136.9	14.481	35.978	208.28
137.9	14.467	35.975	208.3
138.9	14.453	35.974	208.35
139.9	14.436	35.972	208.41
140.9	14.421	35.97	208.48
141.9	14.402	35.97	208.55
142.9	14.376	35.967	208.62
143.9	14.356	35.963	208.7
144.9	14.339	35.961	208.76
145.9	14.307	35.96	208.82
146.9	14.256	35.951	208.84
147.9	14.213	35.937	208.82
148.8	14.189	35.93	208.73
149.8	14.174	35.929	208.61
150.8	14.158	35.93	208.47
151.8	14.137	35.929	208.32
152.8	14.119	35.924	208.18
153.8	14.11	35.92	208.04
154.8	14.102	35.917	207.89
155.8	14.09	35.916	207.74
156.8	14.075	35.915	207.6
157.8	14.067	35.913	207.49
158.8	14.06	35.912	207.42
159.8	14.053	35.91	207.38
160.8	14.048	35.909	207.37
161.7	14.044	35.908	207.37
162.7	14.038	35.907	207.36
163.7	14.023	35.908	207.34
164.7	13.981	35.907	207.33
165.7	13.917	35.899	207.31
166.7	13.872	35.887	207.29
167.7	13.857	35.879	207.27
168.7	13.847	35.876	207.23
169.7	13.834	35.875	207.17
170.7	13.827	35.873	207.11
171.7	13.823	35.871	207.04
172.7	13.82	35.871	206.96
173.6	13.808	35.873	206.89
174.6	13.777	35.873	206.83
175.6	13.745	35.869	206.77
176.6	13.725	35.863	206.72
177.6	13.701	35.861	206.68
178.6	13.675	35.856	206.64
179.6	13.656	35.851	206.62
180.6	13.641	35.848	206.6
181.6	13.627	35.845	206.6
182.6	13.616	35.844	206.62
183.6	13.609	35.842	206.65
184.6	13.603	35.84	206.69
185.5	13.598	35.838	206.75
186.5	13.591	35.838	206.8
187.5	13.576	35.838	206.84
188.5	13.555	35.835	206.84
189.5	13.539	35.832	206.8
190.5	13.531	35.829	206.74
191.5	13.524	35.83	206.66
192.5	13.507	35.831	206.57
193.5	13.482	35.829	206.45
194.5	13.465	35.823	206.32
195.5	13.456	35.82	206.16
196.5	13.448	35.819	205.98
197.5	13.441	35.818	205.79
198.4	13.44	35.817	205.63
199.4	13.439	35.817	205.54
200.4	13.438	35.817	205.5
201.4	13.436	35.817	205.49
202.4	13.432	35.817	205.51
203.4	13.425	35.817	205.54
204.4	13.418	35.815	205.57
205.4	13.413	35.814	205.61
206.4	13.407	35.813	205.66
207.4	13.399	35.812	205.72
208.4	13.389	35.812	205.79
209.4	13.38	35.811	205.84
210.3	13.374	35.81	205.86
211.3	13.369	35.809	205.87
212.3	13.364	35.809	205.86
213.3	13.356	35.808	205.84
214.3	13.346	35.808	205.82
215.3	13.336	35.807	205.8
216.3	13.326	35.806	205.79
217.3	13.31	35.806	205.8
218.3	13.295	35.803	205.81
219.3	13.289	35.8	205.82
220.3	13.286	35.798	205.83
221.3	13.285	35.798	205.84
222.2	13.284	35.798	205.85
223.2	13.284	35.798	205.86
224.2	13.283	35.798	205.88
225.2	13.282	35.798	205.9
226.2	13.276	35.798	205.93
227.2	13.262	35.798	205.95
228.2	13.244	35.795	205.96
229.2	13.233	35.793	205.97
230.2	13.227	35.792	205.98
231.2	13.22	35.792	206.0
232.2	13.212	35.79	206.01
233.2	13.203	35.79	206.01
234.1	13.188	35.79	206.01
235.1	13.166	35.79	206.01
236.1	13.147	35.787	206.0
237.1	13.137	35.783	205.99
238.1	13.132	35.781	205.97
239.1	13.125	35.78	205.95
240.1	13.115	35.78	205.93
241.1	13.1	35.778	205.9
242.1	13.087	35.776	205.87
243.1	13.074	35.775	205.84
244.1	13.063	35.774	205.81
245.0	13.055	35.772	205.78
246.0	13.049	35.771	205.76
247.0	13.044	35.771	205.72
248.0	13.041	35.77	205.69
249.0	13.037	35.77	205.66
250.0	13.034	35.77	205.63
251.0	13.033	35.77	205.61
252.0	13.031	35.77	205.6
253.0	13.025	35.77	205.6
254.0	13.016	35.77	205.61
255.0	13.003	35.768	205.62
256.0	12.989	35.766	205.65
256.9	12.978	35.763	205.69
257.9	12.969	35.761	205.74
258.9	12.953	35.76	205.79
259.9	12.933	35.758	205.84
260.9	12.912	35.756	205.89
261.9	12.892	35.753	205.94
262.9	12.879	35.75	205.98
263.9	12.872	35.747	206.01
264.9	12.866	35.747	206.03
265.9	12.857	35.746	206.0
266.9	12.852	35.745	205.95
267.9	12.849	35.744	205.86
268.8	12.846	35.744	205.76
269.8	12.842	35.744	205.65
270.8	12.832	35.745	205.53
271.8	12.82	35.745	205.41
272.8	12.812	35.743	205.27
273.8	12.805	35.742	205.12
274.8	12.797	35.741	204.96
275.8	12.793	35.74	204.82
276.8	12.791	35.74	204.72
277.8	12.788	35.74	204.67
278.8	12.787	35.739	204.63
279.7	12.787	35.739	204.6
280.7	12.787	35.739	204.57
281.7	12.785	35.739	204.56
282.7	12.782	35.739	204.57
283.7	12.781	35.738	204.6
284.7	12.78	35.738	204.65
285.7	12.778	35.737	204.7
286.7	12.777	35.737	204.75
287.7	12.775	35.737	204.78
288.7	12.771	35.737	204.81
289.7	12.768	35.737	204.84
290.7	12.764	35.736	204.88
291.6	12.758	35.737	204.93
292.6	12.74	35.739	204.96
293.6	12.713	35.736	204.98
294.6	12.688	35.731	204.99
295.6	12.673	35.727	204.98
296.6	12.662	35.725	204.97
297.6	12.649	35.725	204.96
298.6	12.631	35.724	204.95
299.6	12.619	35.722	204.94
300.6	12.615	35.719	204.9
301.6	12.613	35.718	204.84
302.5	12.612	35.718	204.74
303.5	12.608	35.718	204.63
304.5	12.601	35.718	204.5
305.5	12.595	35.717	204.38
306.5	12.589	35.717	204.26
307.5	12.581	35.717	204.13
308.5	12.575	35.716	203.99
309.5	12.574	35.715	203.84
310.5	12.572	35.716	203.68
311.5	12.565	35.717	203.54
312.5	12.557	35.717	203.44
313.5	12.548	35.717	203.4
314.4	12.537	35.715	203.4
315.4	12.525	35.713	203.43
316.4	12.51	35.711	203.47
317.4	12.486	35.708	203.51
318.4	12.455	35.702	203.57
319.4	12.436	35.697	203.62
320.4	12.432	35.695	203.69
321.4	12.429	35.695	203.75
322.4	12.426	35.696	203.8
323.4	12.423	35.697	203.82
324.4	12.415	35.697	203.8
325.3	12.41	35.696	203.75
326.3	12.414	35.696	203.67
327.3	12.417	35.7	203.58
328.3	12.414	35.702	203.47
329.3	12.407	35.701	203.36
330.3	12.397	35.701	203.24
331.3	12.388	35.699	203.13
332.3	12.384	35.696	203.03
333.3	12.386	35.696	202.95
334.3	12.387	35.697	202.88
335.3	12.386	35.698	202.82
336.2	12.376	35.699	202.79
337.2	12.354	35.698	202.78
338.2	12.329	35.694	202.78
339.2	12.313	35.689	202.79
340.2	12.305	35.686	202.82
341.2	12.3	35.684	202.86
342.2	12.298	35.683	202.91
343.2	12.294	35.684	202.95
344.2	12.284	35.684	202.98
345.2	12.269	35.682	202.99
346.2	12.253	35.68	202.99
347.1	12.243	35.678	202.98
348.1	12.237	35.676	202.96
349.1	12.236	35.676	202.95
350.1	12.234	35.676	202.93
351.1	12.234	35.676	202.89
352.1	12.234	35.676	202.84
353.1	12.233	35.676	202.79
354.1	12.227	35.677	202.73
355.1	12.214	35.677	202.7
356.1	12.196	35.676	202.68
357.1	12.183	35.673	202.68
358.0	12.175	35.67	202.69
359.0	12.165	35.67	202.7
360.0	12.154	35.668	202.7
361.0	12.147	35.667	202.71
362.0	12.142	35.666	202.73
363.0	12.139	35.666	202.76
364.0	12.138	35.666	202.79
365.0	12.14	35.666	202.81
366.0	12.142	35.667	202.82
367.0	12.137	35.668	202.81
368.0	12.12	35.67	202.8
368.9	12.098	35.668	202.79
369.9	12.079	35.664	202.77
370.9	12.069	35.661	202.76
371.9	12.062	35.66	202.73
372.9	12.056	35.66	202.71
373.9	12.051	35.659	202.68
374.9	12.047	35.659	202.66
375.9	12.04	35.658	202.64
376.9	12.031	35.657	202.62
377.9	12.023	35.656	202.6
378.9	12.017	35.655	202.58
379.8	12.014	35.654	202.56
380.8	12.013	35.653	202.52
381.8	12.013	35.653	202.48
382.8	12.013	35.654	202.42
383.8	12.013	35.654	202.34
384.8	12.013	35.653	202.26
385.8	12.012	35.653	202.17
386.8	12.008	35.653	202.07
387.8	12.004	35.653	201.97
388.8	12.002	35.653	201.86
389.8	11.999	35.653	201.75
390.7	11.993	35.653	201.64
391.7	11.984	35.653	201.54
392.7	11.974	35.652	201.47
393.7	11.966	35.65	201.43
394.7	11.961	35.648	201.4
395.7	11.956	35.647	201.37
396.7	11.951	35.647	201.35
397.7	11.946	35.646	201.31
398.7	11.941	35.646	201.27
399.7	11.935	35.645	201.23
400.7	11.929	35.644	201.18
401.6	11.921	35.645	201.12
402.6	11.909	35.646	201.04
403.6	11.895	35.645	200.94
404.6	11.888	35.643	200.82
405.6	11.883	35.642	200.67
406.6	11.876	35.641	200.52
407.6	11.871	35.641	200.38
408.6	11.866	35.641	200.27
409.6	11.856	35.642	200.18
410.6	11.846	35.641	200.11
411.6	11.84	35.64	200.05
412.5	11.836	35.639	199.99
413.5	11.829	35.64	199.94
414.5	11.813	35.641	199.92
415.5	11.794	35.639	199.91
416.5	11.78	35.636	199.91
417.5	11.774	35.634	199.88
418.5	11.771	35.633	199.82
419.5	11.768	35.633	199.72
420.5	11.761	35.633	199.6
421.5	11.751	35.633	199.47
422.5	11.742	35.632	199.34
423.4	11.732	35.63	199.2
424.4	11.726	35.629	199.04
425.4	11.724	35.629	198.86
426.4	11.72	35.628	198.66
427.4	11.717	35.628	198.48
428.4	11.716	35.628	198.34
429.4	11.714	35.629	198.25
430.4	11.709	35.63	198.21
431.4	11.705	35.629	198.18
432.4	11.703	35.629	198.15
433.3	11.702	35.629	198.1
434.3	11.698	35.63	198.05
435.3	11.69	35.63	198.03
436.3	11.685	35.629	198.02
437.3	11.683	35.629	198.02
438.3	11.676	35.63	198.02
439.3	11.67	35.63	198.0
440.3	11.668	35.63	197.95
441.3	11.666	35.63	197.86
442.3	11.662	35.63	197.75
443.3	11.658	35.63	197.66
444.2	11.656	35.63	197.59
445.2	11.654	35.63	197.52
446.2	11.65	35.631	197.46
447.2	11.644	35.632	197.38
448.2	11.638	35.632	197.29
449.2	11.632	35.632	197.2
450.2	11.628	35.632	197.11
451.2	11.625	35.632	197.0
452.2	11.624	35.631	196.88
453.2	11.623	35.631	196.76
454.2	11.622	35.631	196.61
455.1	11.62	35.632	196.47
456.1	11.614	35.633	196.31
457.1	11.608	35.633	196.15
458.1	11.605	35.632	195.97
459.1	11.604	35.632	195.77
460.1	11.601	35.632	195.56
461.1	11.598	35.631	195.36
462.1	11.598	35.631	195.19
463.1	11.597	35.632	195.07
464.1	11.595	35.632	194.98
465.0	11.595	35.632	194.92
466.0	11.593	35.632	194.87
467.0	11.589	35.633	194.83
468.0	11.585	35.634	194.82
469.0	11.581	35.634	194.85
470.0	11.573	35.635	194.92
471.0	11.563	35.635	195.01
472.0	11.554	35.635	195.11
473.0	11.548	35.635	195.19
474.0	11.54	35.636	195.25
475.0	11.533	35.636	195.29
475.9	11.527	35.636	195.32
476.9	11.517	35.636	195.34
477.9	11.507	35.636	195.33
478.9	11.501	35.634	195.29
479.9	11.5	35.633	195.22
480.9	11.502	35.634	195.11
481.9	11.505	35.637	194.99
482.9	11.504	35.64	194.87
483.9	11.5	35.641	194.75
484.9	11.496	35.641	194.62
485.8	11.49	35.641	194.48
486.8	11.483	35.642	194.34
487.8	11.477	35.641	194.19
488.8	11.471	35.641	194.04
489.8	11.466	35.64	193.9
490.8	11.462	35.64	193.76
491.8	11.454	35.641	193.63
492.8	11.441	35.642	193.51
493.8	11.43	35.641	193.37
494.8	11.427	35.64	193.22
495.7	11.426	35.64	193.05
496.7	11.425	35.641	192.86
497.7	11.421	35.641	192.67
498.7	11.417	35.641	192.5
499.7	11.415	35.641	192.36
500.7	11.414	35.64	192.23
501.7	11.413	35.64	192.12
502.7	11.412	35.64	192.0
503.7	11.409	35.641	191.86
504.7	11.405	35.641	191.7
505.7	11.403	35.641	191.54
506.6	11.401	35.641	191.4
507.6	11.397	35.643	191.26
508.6	11.39	35.644	191.12
509.6	11.38	35.645	190.96
510.6	11.376	35.644	190.74
511.6	11.374	35.643	190.48
512.6	11.366	35.644	190.16
513.6	11.352	35.646	189.84
514.6	11.339	35.646	189.55
515.6	11.33	35.644	189.32
516.5	11.325	35.642	189.11
517.5	11.326	35.643	188.92
518.5	11.329	35.643	188.73
519.5	11.33	35.645	188.53
520.5	11.323	35.646	188.34
521.5	11.298	35.647	188.2
522.5	11.265	35.642	188.12
523.5	11.243	35.633	188.09
524.5	11.235	35.627	188.08
525.5	11.236	35.626	188.07
526.4	11.244	35.628	188.03
527.4	11.258	35.633	187.97
528.4	11.267	35.64	187.9
529.4	11.267	35.642	187.83
530.4	11.263	35.643	187.77
531.4	11.265	35.643	187.71
532.4	11.271	35.644	187.64
533.4	11.278	35.646	187.56
534.4	11.275	35.65	187.46
535.4	11.265	35.65	187.36
536.3	11.257	35.647	187.26
537.3	11.26	35.645	187.16
538.3	11.27	35.646	187.07
539.3	11.277	35.65	187.01
540.3	11.281	35.652	186.98
541.3	11.285	35.654	186.96
542.3	11.285	35.655	186.95
543.3	11.284	35.656	186.95
544.3	11.282	35.656	186.95
545.3	11.268	35.659	186.95
546.2	11.243	35.658	186.96
547.2	11.24	35.653	186.96
548.2	11.255	35.656	186.96
549.2	11.25	35.662	186.94
550.2	11.23	35.662	186.89
551.2	11.215	35.658	186.81
552.2	11.206	35.656	186.72
553.2	11.195	35.654	186.62
554.2	11.188	35.652	186.5
555.2	11.179	35.651	186.36
556.1	11.158	35.65	186.2
557.1	11.127	35.646	186.0
558.1	11.102	35.639	185.76
559.1	11.09	35.635	185.49
560.1	11.072	35.636	185.2
561.1	11.029	35.636	184.88
562.1	10.991	35.628	184.52
563.1	10.969	35.619	184.12
564.1	10.955	35.614	183.69
565.1	10.938	35.611	183.24
566.0	10.923	35.608	182.77
567.0	10.913	35.605	182.31
568.0	10.907	35.603	181.88
569.0	10.905	35.602	181.49
570.0	10.906	35.602	181.13
571.0	10.907	35.603	180.81
572.0	10.908	35.604	180.51
573.0	10.92	35.604	180.24
574.0	10.951	35.609	180.0
575.0	10.982	35.622	179.79
575.9	11.003	35.631	179.62
576.9	10.995	35.64	179.49
577.9	10.926	35.639	179.39
578.9	10.872	35.623	179.31
579.9	10.872	35.611	179.24
580.9	10.914	35.612	179.17
581.9	11.01	35.629	179.13
582.9	11.115	35.662	179.13
583.9	11.131	35.687	179.17
584.9	11.092	35.688	179.26
585.8	11.059	35.678	179.36
586.8	11.039	35.671	179.47
587.8	11.021	35.666	179.56
588.8	11.0	35.662	179.65
589.8	10.984	35.657	179.73
590.8	10.98	35.652	179.81
591.8	11.004	35.652	179.88
592.8	11.057	35.664	179.94
593.8	11.106	35.684	179.99
594.8	11.125	35.697	180.02
595.7	11.128	35.7	180.05
596.7	11.13	35.701	180.07
597.7	11.131	35.702	180.09
598.7	11.121	35.704	180.1
599.7	11.102	35.702	180.11
600.7	11.09	35.696	180.11
601.7	11.092	35.694	180.1
602.7	11.106	35.695	180.08
603.7	11.117	35.701	180.06
604.7	11.118	35.706	180.02
605.6	11.114	35.707	179.94
606.6	11.106	35.707	179.83
607.6	11.102	35.706	179.69
608.6	11.092	35.708	179.53
609.6	11.064	35.709	179.35
610.6	11.024	35.703	179.15
611.6	10.988	35.696	178.92
612.6	10.952	35.686	178.65
613.6	10.914	35.677	178.34
614.5	10.867	35.67	177.99
615.5	10.807	35.661	177.61
616.5	10.767	35.651	177.21
617.5	10.755	35.644	176.81
618.5	10.753	35.642	176.41
619.5	10.753	35.642	176.03
620.5	10.754	35.642	175.67
621.5	10.754	35.642	175.33
622.5	10.756	35.643	175.03
623.5	10.757	35.646	174.78
624.4	10.758	35.65	174.58
625.4	10.759	35.653	174.44
626.4	10.758	35.655	174.34
627.4	10.755	35.657	174.28
628.4	10.744	35.658	174.25
629.4	10.728	35.658	174.24
630.4	10.715	35.656	174.25
631.4	10.711	35.654	174.27
632.4	10.71	35.654	174.28
633.4	10.711	35.655	174.29
634.3	10.713	35.656	174.28
635.3	10.715	35.657	174.26
636.3	10.716	35.658	174.21
637.3	10.717	35.659	174.16
638.3	10.718	35.66	174.1
639.3	10.721	35.661	174.04
640.3	10.729	35.662	173.96
641.3	10.741	35.664	173.89
642.3	10.752	35.668	173.81
643.3	10.756	35.673	173.73
644.2	10.752	35.675	173.66
645.2	10.747	35.675	173.59
646.2	10.743	35.674	173.53
647.2	10.739	35.675	173.49
648.2	10.721	35.676	173.46
649.2	10.705	35.674	173.43
650.2	10.7	35.67	173.4
651.2	10.698	35.669	173.37
652.2	10.697	35.669	173.34
653.1	10.7	35.67	173.32
654.1	10.707	35.67	173.3
655.1	10.723	35.672	173.31
656.1	10.741	35.68	173.32
657.1	10.735	35.688	173.35
658.1	10.738	35.691	173.37
659.1	10.759	35.694	173.4
660.1	10.782	35.704	173.44
661.1	10.784	35.71	173.5
662.1	10.776	35.71	173.58
663.0	10.772	35.709	173.67
664.0	10.771	35.708	173.75
665.0	10.77	35.709	173.83
666.0	10.77	35.709	173.9
667.0	10.768	35.71	173.97
668.0	10.765	35.712	174.03
669.0	10.763	35.712	174.1
670.0	10.761	35.713	174.17
671.0	10.759	35.714	174.23
671.9	10.759	35.715	174.26
672.9	10.76	35.716	174.28
673.9	10.759	35.718	174.28
674.9	10.758	35.719	174.28
675.9	10.755	35.72	174.27
676.9	10.751	35.721	174.25
677.9	10.75	35.722	174.21
678.9	10.749	35.724	174.14
679.9	10.742	35.725	174.05
680.9	10.732	35.724	173.94
681.8	10.721	35.723	173.82
682.8	10.708	35.723	173.7
683.8	10.699	35.721	173.58
684.8	10.695	35.72	173.47
685.8	10.688	35.719	173.36
686.8	10.686	35.719	173.26
687.8	10.687	35.719	173.17
688.8	10.689	35.72	173.11
689.8	10.694	35.72	173.08
690.7	10.707	35.721	173.07
691.7	10.722	35.726	173.08
692.7	10.729	35.731	173.12
693.7	10.731	35.735	173.17
694.7	10.732	35.737	173.22
695.7	10.732	35.738	173.27
696.7	10.732	35.738	173.32
697.7	10.73	35.739	173.35
698.7	10.727	35.739	173.37
699.6	10.715	35.739	173.37
700.6	10.697	35.737	173.34
701.6	10.679	35.732	173.28
702.6	10.669	35.729	173.19
703.6	10.666	35.728	173.09
704.6	10.664	35.728	172.97
705.6	10.661	35.728	172.85
706.6	10.657	35.729	172.73
707.6	10.651	35.729	172.61
708.6	10.639	35.73	172.51
709.5	10.633	35.728	172.43
710.5	10.636	35.727	172.37
711.5	10.644	35.73	172.35
712.5	10.648	35.735	172.35
713.5	10.648	35.738	172.38
714.5	10.647	35.74	172.42
715.5	10.645	35.742	172.47
716.5	10.642	35.742	172.53
717.5	10.638	35.743	172.61
